Fractal Dimension,Relative Energy,RMS Displacement,Maximum Displacement,RMS Force,Maximum Force
1.77992743046466,0,0,0,0,0
1.77995817346388,-6.98165192351526e-05,0.00229210137366601,0.00250732580593414,0.299679238205539,0.327818610506488
1.78001194004322,-0.000189483286116293,0.00399989302441901,0.0043823203280733,0.296931798992007,0.325700930523717
1.78008278441138,-0.000342526020406684,0.00525203486079067,0.0057686073916936,0.292277164857978,0.322062861497802
1.78016613213228,-0.00051610672644024,0.00615095240810418,0.00677826063366756,0.286447537606367,0.317404095215449
1.78025847014952,-0.000700740611693171,0.00677843125045674,0.00749889244249406,0.28004309483093,0.312129629697908
1.78035710771949,-0.000889802990220943,0.00719980830276478,0.00799905961878471,0.273527336477994,0.306557668698561
1.78045999179624,-0.00107896598592583,0.00746714132893633,0.00833239952424971,0.267233876825134,0.300929946883287
1.780565564226,-0.00126565051875876,0.00762164594485046,0.00854081267177388,0.261380773072964,0.295423090205013
1.78067265105747,-0.00144854100452499,0.00769561624731609,0.00865693036964887,0.256089702278422,0.290160083965369
1.78078037654721,-0.00162718404001369,0.00771398619504103,0.00870604537457067,0.251407508263207,0.285221149981912
1.7808880961875,-0.00180167509966139,0.00769564046095541,0.00870763654284277,0.247327714717481,0.280653517942383
1.78099534442379,-0.00197242673835407,0.00765454396521618,0.00867658281073162,0.243809936257064,0.276479770017319
1.78110179375229,-0.00214000623412065,0.00760072848872035,0.00862413548627432,0.240795768395755,0.272704636386257
1.78120722266693,-0.00230502857468022,0.00754115315940269,0.00855869901824422,0.238220539523648,0.269320295194128
1.78131149051617,-0.00246809099771385,0.00748044331553075,0.0084864574626178,0.236021043341564,0.266310358317389
1.78141451777776,-0.00262973696957141,0.00742150822579948,0.00841187524089153,0.234139881634436,0.263652792463875
1.78151627059862,-0.00279043978944013,0.00736604007414625,0.00833809509125401,0.232527286550475,0.261322037218296
1.78161674870381,-0.00295059841099271,0.00731490153852048,0.00826725221784694,0.23114129997877,0.259290552342764
1.78171597597383,-0.00311054025153348,0.00726841447789442,0.0082007207172374,0.229947048975709,0.257529974952851
1.78181399313896,-0.00327052754126371,0.00722656585797684,0.00813930589275353,0.228915655206468,0.256012010560178
1.78191085215399,-0.00343076510487159,0.00718914836212458,0.0080833938118832,0.228023116027654,0.254709132736634
1.78200661190603,-0.00359140839535288,0.00715585231417411,0.00803306736062739,0.227249330852526,0.253595130522538
1.78210133497778,-0.00375257118962088,0.00712632324688602,0.00798819614055135,0.226577331605507,0.25264552162889
1.78219508524383,-0.00391433269470499,0.00710019646609122,0.00794850590346666,0.225992708050574,0.25183784049113
1.78228792612136,-0.00407674398505319,0.00707711694058037,0.00791363186952685,0.225483187525552,0.251151809319734
1.78237991933196,-0.00423983376332856,0.00705675021406494,0.00788315923284546,0.225038321902432,0.250569403447457
1.78247112405945,-0.00440361345804468,0.00703878798134189,0.00785665339481668,0.224649241376904,0.250074826352085
1.78256159641165,-0.00456808167272162,0.0070229505157057,0.00783368192603132,0.224308446671937,0.249654412781824
1.7826513891127,-0.00473322799996082,0.0070089871947943,0.00781382988236739,0.224009623174162,0.249296479575383
1.78274055136741,-0.00489903621695488,0.00699667582020485,0.00779670983342637,0.223747469780016,0.248991143009424
1.78282912885165,-0.00506548688730038,0.00698582113424784,0.00778196775799552,0.223517541059218,0.248730119253671
1.78291716379246,-0.00523255940567234,0.00697625279875997,0.00776928579167303,0.223316104111836,0.248506521381203
1.78300469510979,-0.00540023353396595,0.00696782303970132,0.00775838265954575,0.223140012064155,0.248314662959354
1.78309175859813,-0.00556849048759685,0.00696040413019014,0.0077490124847263,0.222986595454313,0.248149874994845
1.78317838713157,-0.00573731363716003,0.00695388585910294,0.00774096253063045,0.222853571576183,0.248008340216415
1.78326461087986,-0.00590668889311766,0.00694817310346789,0.00773405031339859,0.222738970703008,0.247886946482606
1.78335045752653,-0.00607660483978692,0.00694318359013761,0.00772812041331321,0.222641077278615,0.247783159513315
1.78343595248253,-0.0062470526803954,0.0069388458989874,0.0077230412223898,0.222558383728743,0.247694914094818
1.78352111909096,-0.00641802604827656,0.00693509773002275,0.00771870179051663,0.222489554469863,0.247620522293438
1.78360597882012,-0.00658952073134005,0.00693188443283716,0.00771500887359682,0.222433397879086,0.247558596918386
1.78369055144299,-0.0067615343486106,0.00692915778030794,0.00771188424294778,0.222388844323856,0.247507988395144
1.78377485520261,-0.00693406600947055,0.00692687495855055,0.00770926228306395,0.222354928736929,0.247467733263282
1.78385890696297,-0.00710711597871258,0.00692499774131736,0.00770708788294866,0.222330776591596,0.247437012635414
1.78394272234581,-0.00728068536388073,0.00692349181725108,0.00770531461169065,0.222315592444756,0.247415119107025
1.78402631585397,-0.00745477583572223,0.00692232624126712,0.00770390316015745,0.222308650456825,0.247401430766418
1.78410970098202,-0.00762938938791704,0.00692147298549907,0.00770282002578203,0.222309286469982,0.247395391108138
1.78419289031523,-0.00780452813858362,0.00692090656963247,0.0077020364151718,0.222316891341938,0.24739649379733
1.78427589561764,-0.00798019417321151,0.00692060375454697,0.00770152733886939,0.222330905306389,0.247404271365776
1.78435872791045,-0.00815638942664114,0.00692054328667503,0.00770127087317922,0.222350813178071,0.247418287043472
1.78444139754158,-0.00833311560029436,0.00692070568316739,0.00770124756536533,0.222376140251321,0.247438129043546
1.78452391424723,-0.00851037411002134,0.00692107305014729,0.0077014399602244,0.222406448763975,0.247463406723477
1.7846062872065,-0.0086881660595338,0.00692162892784699,0.00770183222812967,0.222441334818021,0.247493748142041
1.78468852508964,-0.00886649223434832,0.00692235815765851,0.00770240987658035,0.222480425666531,0.247528798618779
1.78477063610083,-0.00904535311139924,0.00692324676702777,0.00770315952957314,0.222523377293598,0.24756821998076
1.78485262801605,-0.00922474887988313,0.00692428186889379,0.00770406876107384,0.222569872229888,0.247611690249696
1.7849345082166,-0.00940467946946708,0.00692545157296576,0.00770512597093427,0.222619617560387,0.247658903580982
1.78501628371895,-0.00958514458258073,0.00692674490663559,0.0077063202933591,0.222672343092653,0.247709570315467
1.78509796120114,-0.00976614372814951,0.00692815174385464,0.00770764152989301,0.222727799662988,0.247763417045131
1.78517954702646,-0.00994767625473817,0.00692966274056449,0.0077090801002187,0.222785757564711,0.247820186626333
1.78526104726444,-0.0101297413816312,0.00693126927567764,0.00771062700557308,0.222846005087326,0.247879638099709
1.78534246770974,-0.0103123382268861,0.00693296339681318,0.00771227380062411,0.222908347158307,0.247941546495358
1.78542381389908,-0.0104954658318039,0.00693473777020238,0.00771401257071987,0.222972604080888,0.248005702516399
1.78550509112654,-0.0106791231816183,0.00693658563429503,0.00771583591213018,0.223038610362139,0.248071912104455
1.78558630445733,-0.0108633092224612,0.00693850075675358,0.00771773691372403,0.223106213625956,0.248139995897689
1.78566745874034,-0.0110480228748576,0.00694047739451812,0.0077197091388443,0.223175273605761,0.248209788596689
1.78574855861959,-0.0112332630441321,0.0069425102567692,0.00772174660680829,0.223245661211778,0.248281138255975
1.78582960854468,-0.0114190286281763,0.00694459447053961,0.00772384377354944,0.223317257667836,0.248353905519945
1.7859106127804,-0.0116053185230557,0.00694672554882063,0.00772599551133402,0.223389953712827,0.248427962821964
1.78599157541564,-0.0117921316269234,0.00694889936100856,0.00772819708755556,0.22346364886215,0.248503193564303
1.78607250037155,-0.0119794668426862,0.00695111210550859,0.00773044414278037,0.223538250724733,0.24857949129508
1.78615339140927,-0.0121673230797894,0.00695336028437355,0.00773273266826708,0.223613674371526,0.248656758896418
1.786234252137,-0.012355699255471,0.0069556406798104,0.00773505898321284,0.223689841751653,0.248734907795831
1.78631508601675,-0.0125445942957185,0.0069579503324574,0.00773741971204506,0.223766681152701,0.248813857210621
1.78639589637056,-0.0127340071361494,0.00696028652127981,0.00773981176200505,0.223844126701892,0.248893533432837
1.78647668638647,-0.0129239367229429,0.00696264674496879,0.00774223230126602,0.223922117905134,0.248973869160198
1.78655745912409,-0.0131143820139123,0.00696502870475462,0.0077446787378424,0.224000599221185,0.249054802876442
1.7866382175199,-0.0133053419797608,0.00696743028850256,0.00774714869944019,0.22407951966835,0.249136278282793
1.78671896439229,-0.0134968156055426,0.00696984955602957,0.00774964001439782,0.224158832461323,0.24921824378078
1.78679970244629,-0.0136888018922853,0.00697228472552785,0.00775215069382771,0.224238494675962,0.249300652005339
1.78688043427819,-0.0138812998587689,0.00697473416102721,0.00775467891502729,0.224318466939933,0.249383459406137
1.78696116237983,-0.0140743085433867,0.00697719636081191,0.00775722300617099,0.2243987131473,0.249466625874324
1.78704188914276,-0.0142678270060529,0.0069796699467337,0.0077597814322741,0.224479200195281,0.249550114411376
1.78712261686219,-0.0144618543300919,0.006982153654339,0.00776235278245199,0.224559897741514,0.249633890836323
1.78720334774079,-0.0146563896240657,0.00698464632375979,0.0077649357583536,0.224640777980286,0.249717923527566
1.78728408389234,-0.0148514320234888,0.00698714689131511,0.00776752916375128,0.224721815436305,0.249802183195441
1.78736482734517,-0.0150469806923975,0.00698965438176063,0.00777013189520718,0.224802986774682,0.249886642681767
1.78744558004551,-0.0152430348247394,0.00699216790113875,0.00777274293369501,0.224884270625892,0.249971276782914
1.78752634386075,-0.0154395936455732,0.00699468663018892,0.00777536133713999,0.224965647424581,0.250056062093074
1.78760712058242,-0.0156366564120514,0.00699720981828037,0.00777798623373932,0.225047099261155,0.250140976864837
1.78768791192925,-0.015834222414196,0.00699973677781306,0.0077806168160241,0.225128609745178,0.250226000884422
1.78776871954995,-0.0160322909754609,0.00700226687906013,0.00778325233552106,0.225210163879664,0.250311115359302
1.78784954502597,-0.0162308614530905,0.00700479954543047,0.00778589209800461,0.225291747945436,0.250396302816297
1.78793038987413,-0.0164299332382906,0.00700733424908411,0.00778853545920797,0.225373349394754,0.250481547008463
1.78801125554915,-0.0166295057562195,0.00700987050692344,0.0077911818209717,0.225454956753515,0.250566832829471
1.78809214344609,-0.0168295784658253,0.00701240787687714,0.00779383062774411,0.225536559531346,0.250652146234375
1.78817305490273,-0.0170301508595398,0.00701494595450644,0.00779648136340978,0.225618148138965,0.250737474165885
1.78825399120177,-0.0172312224628525,0.0070174843698601,0.0077991335483879,0.225699713812266,0.250822804485509
1.78833495357304,-0.0174327928337847,0.00702002278460348,0.00780178673695926,0.225781248542568,0.250908125909002
1.78841594319561,-0.0176348615622735,0.00702256088936475,0.00780444051482218,0.225862745012568,0.250993427945772
1.7884969611998,-0.0178374282694929,0.00702509840130559,0.00780709449681938,0.225944196537532,0.251078700841903
1.78857800866911,-0.0180404926071155,0.00702763506187862,0.0078097483248237,0.226025597011315,0.251163935526622
1.78865908664209,-0.0182440542565384,0.00703017063477689,0.00781240166578665,0.226106940856817,0.251249123561986
1.78874019611418,-0.018448112928076,0.00703270490405336,0.00781505420990857,0.22618822298054,0.251334257095701
1.78882133803938,-0.0186526683601333,0.00703523767237849,0.0078177056689353,0.226269438730889,0.251419328816931
1.788902513332,-0.0188577203183716,0.00703776875945626,0.00782035577456225,0.226350583859942,0.251504331914997
1.78898372286818,-0.0190632685948638,0.00704029800056255,0.00782300427696185,0.2264316544884,0.251589260040869
1.78906496748751,-0.0192693130072536,0.00704282524521424,0.00782565094340079,0.226512647073457,0.251674107271349
1.78914624799447,-0.0194758533979206,0.00704535035593203,0.00782829555692824,0.226593558379354,0.251758868075822
1.78922756515986,-0.0196828896331494,0.00704787320712012,0.00783093791520667,0.226674385450411,0.251843537285479
1.7893089197222,-0.019890421602315,0.00705039368403442,0.00783357782937701,0.226755125586315,0.251928110064874
1.78939031238903,-0.0200984492170752,0.00705291168183195,0.00783621512302856,0.2268357763195,0.25201258188569
1.7894717438382,-0.020306972410583,0.00705542710471194,0.00783884963124339,0.226916335394437,0.252096948502598
1.78955321471904,-0.0205159911367081,0.00705793986511303,0.00784148119969773,0.226996800748671,0.252181205931044
1.78963472565359,-0.0207255053692803,0.00706044988299517,0.00784410968385921,0.227077170495484,0.252265350426875
1.78971627723771,-0.0209355151013435,0.00706295708516618,0.00784673494821317,0.227157442908024,0.252349378467616
1.7897978700421,-0.0211460203444312,0.00706546140467631,0.0078493568655703,0.227237616404797,0.252433286735318
1.78987950461345,-0.0213570211278567,0.00706796278025897,0.00785197531642694,0.227317689536397,0.252517072100839
1.78996118147531,-0.0215685174980193,0.0070704611558154,0.00785459018836489,0.227397660973385,0.252600731609409
1.79004290112915,-0.0217805095177308,0.007072956479959,0.00785720137552052,0.227477529495209,0.252684262467426
1.79012466405521,-0.0219929972655572,0.00707544870557971,0.00785980877807528,0.227557293980079,0.252767662030326
1.79020647071341,-0.0222059808351772,0.0070779377894536,0.00786241230180043,0.227636953395728,0.252850927791457
1.79028832154418,-0.0224194603347614,0.00708042369189112,0.00786501185763408,0.227716506790977,0.252934057371877
1.79037021696926,-0.0226334358863655,0.00708290637640209,0.0078676073612865,0.227795953288031,0.253017048510971
1.79045215739253,-0.0228479076253445,0.0070853858094078,0.00787019873289668,0.227875292075457,0.253099899057839
1.79053414320068,-0.023062875699781,0.00708786195996237,0.00787278589669388,0.227954522401779,0.253182606963375
1.79061617476398,-0.0232783402699351,0.00709033479950842,0.00787536878070822,0.22803364356964,0.253265170272975
1.79069825243691,-0.023494301507707,0.00709280430164802,0.00787794731648653,0.228112654930479,0.25334758711984
1.7907803765589,-0.0237107595961233,0.00709527044193459,0.00788052143883529,0.228191555879684,0.253429855718795
1.79086254745487,-0.0239277147288336,0.00709773319769165,0.00788309108559618,0.228270345852183,0.253511974360621
1.79094476543589,-0.0241451671096325,0.00710019254782766,0.00788565619741692,0.228349024318426,0.253593941406814
1.79102703079974,-0.0243631169519903,0.00710264847269476,0.00788821671757458,0.228427590780731,0.253675755284769
1.79110934383146,-0.024581564478605,0.0071051009539323,0.00789077259177019,0.228506044769969,0.253757414483346
1.79119170480389,-0.0248005099209729,0.00710754997434821,0.00789332376797819,0.22858438584254,0.253838917548792
1.79127411397819,-0.0250199535189697,0.00710999551779015,0.00789587019627593,0.228662613577636,0.253920263080969
1.79135657160431,-0.025239895520453,0.00711243756905103,0.00789841182872639,0.228740727574755,0.254001449729908
1.79143907792144,-0.0254603361808763,0.00711487611375806,0.00790094861921733,0.228818727451443,0.254082476192614
1.79152163315852,-0.0256812757629214,0.00711731113829054,0.00790348052335898,0.228896612841249,0.254163341210143
1.79160423753461,-0.025902714536144,0.0071197426297029,0.00790600749837988,0.228974383391876,0.254244043564892
1.79168689125934,-0.0261246527766333,0.00712217057563944,0.00790852950299747,0.229052038763499,0.254324582078125
1.79176959453328,-0.0263470907666884,0.00712459496428254,0.00791104649735333,0.229129578627255,0.254404955607687
1.79185234754832,-0.026570028794504,0.00712701578428236,0.00791355844291054,0.229207002663869,0.254485163045889
1.79193515048807,-0.0267934671538734,0.00712943302470527,0.00791606530237753,0.229284310562419,0.254565203317581
1.79201800352816,-0.0270174061439038,0.00713184667498536,0.00791856703963573,0.229361502019218,0.254645075378356
1.79210090683659,-0.0272418460687402,0.00713425672487946,0.00792106361967046,0.229438576736814,0.254724778212908
1.79218386057406,-0.0274667872373072,0.00713666316442634,0.00792355500850735,0.22951553442308,0.254804310833509
1.79226686489426,-0.0276922299630579,0.00713906598390753,0.00792604117315727,0.229592374790403,0.2548836722786
1.79234991994417,-0.0279181745637364,0.00714146517382225,0.00792852208156444,0.229669097554958,0.254962861611502
1.79243302586436,-0.02814462136115,0.00714386072484841,0.00793099770255327,0.229745702436048,0.255041877919204
1.79251618278921,-0.0283715706809537,0.00714625262782559,0.00793346800578996,0.229822189155525,0.255120720311259
1.79259939084722,-0.0285990228524432,0.0071486408737207,0.00793593296172607,0.229898557437259,0.255199387918749
1.79268265016123,-0.0288269782083565,0.00715102545361304,0.00793839254157423,0.229974807006681,0.255277879893325
1.79276596084864,-0.02905543708469,0.00715340635867694,0.00794084671727029,0.230050937590363,0.255356195406323
1.79284932302168,-0.0292843998205189,0.00715578358015767,0.00794329546143573,0.230126948915648,0.255434333647927
1.7929327367876,-0.0295138667578275,0.00715815710936356,0.00794573874734787,0.230202840710329,0.2555122938264
1.79301620224887,-0.0297438382413507,0.00716052693764652,0.00794817654890955,0.230278612702357,0.255590075167372
1.79309971950341,-0.0299743146184184,0.0071628930563906,0.00795060884062643,0.230354264619588,0.255667676913152
1.79318328864474,-0.0302052962388152,0.00716525545700481,0.00795303559758352,0.230429796189562,0.255745098322112
1.79326690976219,-0.0304367834546414,0.00716761413090965,0.0079554567954086,0.230505207139309,0.255822338668094
1.79335058294107,-0.0306687766201843,0.00716996906953252,0.00795787241027637,0.230580497195179,0.255899397239854
1.79343430826285,-0.030901276091795,0.00717232026429419,0.00796028241885517,0.230655666082693,0.255976273340547
1.79351808580527,-0.0311342822277771,0.00717466770660835,0.00796268679831813,0.230730713526426,0.256052966287246
1.79360191564257,-0.0313677953882721,0.00717701138787293,0.00796508552629983,0.230805639249889,0.256129475410473
1.79368579784557,-0.0316018159351637,0.00717935129946526,0.00796747858090536,0.230880442975449,0.25620580005378
1.79376973248184,-0.0318363442319765,0.00718168743273849,0.00796986594067322,0.230955124424245,0.256281939573337
1.79385371961584,-0.0320713806437907,0.00718401977901722,0.00797224758457395,0.231029683316132,0.256357893337548
1.79393775930904,-0.0323069255371537,0.00718634832959638,0.00797462349198485,0.231104119369627,0.256433660726697
1.79402185162004,-0.0325429792800044,0.00718867307573329,0.00797699364269109,0.231178432301869,0.256509241132595
1.7941059966047,-0.0327795422415991,0.00719099400865226,0.00797935801686466,0.231252621828592,0.256584633958265
1.79419019431623,-0.0330166147924423,0.00719331111954195,0.00798171659505001,0.2313266876641,0.256659838617636
1.79427444480535,-0.0332541973042247,0.00719562439954457,0.00798406935815528,0.23140062952125,0.256734854535251
1.79435874812031,-0.033492290149765,0.00719793383976688,0.00798641628745406,0.231474447111452,0.256809681145993
1.79444310430708,-0.0337308937029548,0.00720023943126944,0.00798875736455053,0.231548140144658,0.256884317894824
1.79452751340938,-0.0339700083387106,0.00720254116507621,0.00799109257139477,0.231621708329369,0.256958764236532
1.79461635562921,-0.0343675585368161,0.00820559870088585,0.00839924084460907,0.480462693276328,0.640272201478999
